       224
    320.00   .027207   .005094
    330.00   .028195   .004065
    340.00   .028933   .005475
    350.00   .030259   .003297
    360.00   .031698   .001193
    370.00   .033260   .000792
    380.00   .034430   .000658
    390.00   .035843   .000608
    400.00   .036928   .002343
    410.00   .037675   .001753
    420.00   .038660   .001269
    430.00   .039256   .001508
    440.00   .040022   .001258
    450.00   .040573   .001091
    460.00   .040867   .001004
    470.00   .041594   .000917
    480.00   .042118   .000819
    490.00   .042643   .000768
    500.00   .043027   .000702
    510.00   .043509   .000688
    520.00   .043627   .000659
    530.00   .043929   .000663
    540.00   .043972   .000615
    550.00   .044162   .000595
    560.00   .044066   .000591
    570.00   .044052   .000604
    580.00   .043935   .000549
    590.00   .043755   .000548
    600.00   .043571   .000605
    610.00   .043372   .000652
    620.00   .043106   .000675
    630.00   .042853   .000699
    640.00   .042740   .000755
    650.00   .042528   .000795
    660.00   .042322   .000875
    670.00   .042060   .000911
    680.00   .041946   .000925
    690.00   .041937   .000936
    700.00   .041826   .000967
    710.00   .041738   .001067
    720.00   .041665   .001174
    730.00   .041653   .001286
    740.00   .041666   .001426
    750.00   .041666   .001662
    760.00   .041704   .001899
    770.00   .041738   .002171
    780.00   .041799   .002481
    790.00   .041860   .002808
    800.00   .041942   .003121
    810.00   .041991   .003453
    820.00   .042025   .003743
    830.00   .041957   .006054
    840.00   .042046   .005941
    850.00   .042021   .005577
    860.00   .042006   .005221
    870.00   .041947   .005542
    880.00   .041814   .004731
    890.00   .041712   .004037
    900.00   .041617   .003524
    910.00   .041611   .003152
    920.00   .041678   .002912
    930.00   .041720   .002646
    940.00   .041742   .002409
    950.00   .041843   .002159
    960.00   .041887   .001893
    970.00   .041953   .001646
    980.00   .042003   .001465
    990.00   .042054   .001255
   1000.00   .042071   .001188
   1010.00   .042080   .001038
   1020.00   .042145   .001271
   1030.00   .042156   .001318
   1040.00   .042174   .001373
   1050.00   .042186   .001427
   1060.00   .042189   .001329
   1070.00   .042199   .001240
   1080.00   .042233   .001163
   1090.00   .042274   .001095
   1100.00   .042287   .001036
   1110.00   .042356   .000987
   1120.00   .042397   .000939
   1130.00   .042415   .000897
   1140.00   .042426   .000857
   1150.00   .042448   .000819
   1160.00   .042483   .000790
   1170.00   .042523   .000760
   1180.00   .042606   .000741
   1190.00   .042663   .000707
   1200.00   .042641   .000670
   1210.00   .042741   .000649
   1220.00   .042762   .000614
   1230.00   .042859   .000578
   1240.00   .042949   .000576
   1250.00   .043002   .000582
   1260.00   .043132   .000567
   1270.00   .043146   .000563
   1280.00   .043206   .000573
   1290.00   .043293   .000581
   1300.00   .043428   .000569
   1310.00   .043448   .000586
   1320.00   .043470   .000548
   1330.00   .043545   .000536
   1340.00   .043628   .000562
   1350.00   .043708   .000592
   1360.00   .043746   .000625
   1370.00   .043765   .000638
   1380.00   .043762   .000654
   1390.00   .043779   .000685
   1400.00   .043789   .000717
   1410.00   .043840   .000730
   1420.00   .043889   .000760
   1430.00   .044034   .000770
   1440.00   .044054   .000773
   1450.00   .044080   .000780
   1460.00   .044110   .000773
   1470.00   .044159   .000771
   1480.00   .044213   .000772
   1490.00   .044241   .000770
   1500.00   .044316   .000772
   1510.00   .044353   .000765
   1520.00   .044377   .000765
   1530.00   .044384   .000760
   1540.00   .044420   .000756
   1550.00   .044391   .000759
   1560.00   .044507   .000756
   1570.00   .044629   .000818
   1580.00   .044556   .000814
   1590.00   .044633   .000822
   1600.00   .044626   .000846
   1610.00   .044590   .000821
   1620.00   .044628   .000832
   1630.00   .044658   .000833
   1640.00   .044702   .000847
   1650.00   .044701   .000869
   1660.00   .044769   .000893
   1670.00   .044873   .000902
   1680.00   .044908   .000922
   1690.00   .044932   .000921
   1700.00   .044942   .000918
   1710.00   .044942   .000919
   1720.00   .044949   .000910
   1730.00   .044928   .000931
   1740.00   .044899   .000896
   1750.00   .044931   .000919
   1760.00   .044844   .000919
   1770.00   .044878   .000852
   1780.00   .044817   .000817
   1790.00   .044772   .000851
   1800.00   .044764   .000893
   1810.00   .044728   .000799
   1820.00   .044705   .000776
   1830.00   .044657   .000797
   1840.00   .044634   .000857
   1850.00   .044606   .000835
   1860.00   .044565   .000832
   1870.00   .044496   .000817
   1880.00   .044438   .000809
   1890.00   .044326   .000801
   1900.00   .044254   .000784
   1910.00   .044175   .000784
   1920.00   .044139   .000781
   1930.00   .044103   .000776
   1940.00   .044087   .000769
   1950.00   .044041   .000770
   1960.00   .043983   .000759
   1970.00   .044084   .000777
   1980.00   .044051   .000764
   1990.00   .044065   .000758
   2000.00   .044096   .000729
   2010.00   .044154   .000757
   2020.00   .044123   .000762
   2030.00   .044070   .000752
   2040.00   .044064   .000743
   2050.00   .044104   .000730
   2060.00   .044177   .000712
   2070.00   .044132   .000700
   2080.00   .044149   .000723
   2090.00   .044163   .000729
   2100.00   .044118   .000704
   2110.00   .044209   .000474
   2120.00   .044269   .000473
   2130.00   .044274   .000467
   2140.00   .044354   .000443
   2150.00   .044252   .000488
   2160.00   .044339   .000530
   2170.00   .044255   .000528
   2180.00   .044229   .000547
   2190.00   .044228   .000529
   2200.00   .044234   .000580
   2210.00   .044156   .000596
   2220.00   .044223   .000590
   2230.00   .044105   .000605
   2240.00   .044099   .000595
   2250.00   .044051   .000549
   2260.00   .044081   .000561
   2270.00   .043970   .000574
   2280.00   .043926   .000574
   2290.00   .043880   .000565
   2300.00   .043720   .000562
   2310.00   .043658   .000547
   2320.00   .043520   .000516
   2330.00   .043437   .000516
   2340.00   .043506   .000530
   2350.00   .043666   .000527
   2360.00   .043753   .000521
   2370.00   .043770   .000519
   2380.00   .043741   .000518
   2390.00   .043662   .000542
   2400.00   .043674   .000525
   2410.00   .043640   .000540
   2420.00   .043718   .000574
   2430.00   .043660   .000602
   2440.00   .043654   .000602
   2450.00   .043495   .000624
   2460.00   .043504   .000636
   2470.00   .043399   .000608
   2480.00   .043374   .000650
   2490.00   .043377   .000505
   2500.00   .043342   .000528
   2510.00   .043263   .000514
   2520.00   .043207   .000551
   2530.00   .043030   .000609
   2540.00   .043031   .000626
   2550.00   .043030   .000701



 C1TB192.ASC             

 TB-MDD-192
 MIL 11111 (CM1/2) <125 um
 No depolarizer was used over the wavelength ranges of 320-400 & 1800-2550 nm
 Albedo adjusted to the visible range
 
 Source Ang:  30.00, Detect Ang:    .00, Volt:  .777
 Date: 10-DEC-19, Time: 16:10:47
 
 RATIOS ADJUSTED USING RELAB SPECTRALON CALIBRATION TABLE
